x,mtrue,utrue,forcing,distribution,omega
0.0,0.13533528323662536,0.3613352646579882,-14.578781335453145,0.7977499210096819,1.0
0.0009765625,0.13799795211026644,0.36607103421813963,-14.72768960643606,0.8024303054157443,
0.001953125,0.14069958915640535,0.37080657355242364,-14.823801501109065,0.8071227547611031,
0.0029296875,0.14344043695375983,0.37554174902622595,-14.867863047470726,0.8118271600746608,
0.00390625,0.146220731491354,0.38027638975380423,-14.913347533673594,0.8165434110630139,
0.0048828125,0.14904070194926458,0.3850103174699761,-14.960213110566995,0.8212713961111846,
0.005859375,0.15190057047838396,0.3897433539361471,-15.008416010523336,0.8260110022834847,
0.0068359375,0.15480055197930956,0.39447532094702126,-15.057910513090123,0.8307621153245068,
0.0078125,0.15774085388046993,0.39920604033730905,-15.108648909987378,0.8355246196602537,
0.0087890625,0.160721675915601,0.4039353339884356,-15.160581469785525,0.8402983983993941,
0.009765625,0.16374320990068836,0.4086630238352455,-15.213656402897268,0.8450833333346556,
0.0107421875,0.16680563951049482,0.4133889318727068,-15.267819825967532,0.8498793049443495,
0.01171875,0.16990914005479435,0.4181128801626131,-15.323015726034383,0.8546861923940313,
0.0126953125,0.17305387825443566,0.42283469084028225,-15.379185924983833,0.8595038735382956,
0.013671875,0.176240012017362,0.42755418612125345,-15.43627004370512,0.8643322249227062,
0.0146484375,0.17946769021471567,0.43227118830798106,-15.494205466086463,0.8691711217858629,
0.015625,0.18273705245715768,0.43698551979652467,-15.552927303049131,0.8740204380616045,
0.0166015625,0.1860482288715363,0.4416970030832375,-15.612368356505648,0.8788800463813486,
0.017578125,0.1894013398780394,0.4464054607714492,-15.672459083618655,0.883749818076571,
0.0185546875,0.1927964959679682,0.45111071557814614,-15.73312756089523,0.8886296231814202,
0.01953125,0.19623379748227168,0.4558125903406474,-15.794299448332618,0.8935193304354728,
0.0205078125,0.1997133343909838,0.4605109080232755,-15.855897954142453,0.8984188072866269,
0.021484375,0.20323518607370666,0.46520549172402403,-15.91784379927217,0.9033279198941352,
0.0224609375,0.2067994211012849,0.4698961646812193,-15.980055182244751,0.9082465331317783,
0.0234375,0.2104060970188188,0.47458275028017777,-16.042447744633304,0.9131745105911775,
0.0244140625,0.21405526013016396,0.4792650720598565,-16.1049345366179,0.9181117145852495,
0.025390625,0.2177469452840702,0.48394295371950014,-16.1674259831327,0.9230580061518013,
0.0263671875,0.22148117566210868,0.4886162191252807,-16.22982985057821,0.9280132450572653,
0.02734375,0.2252579625685432,0.49328469231693206,-16.292051213798675,0.9329772898005797,
0.0283203125,0.22907730522229938,0.49794819751437736,-16.35399242403298,0.9379499976172072,
0.029296875,0.2329391905511872,0.5026065591243511,-16.41555307770538,0.9429312244832978,
0.0302734375,0.23684359298853563,0.5072596017470132,-16.47662998570911,0.9479208251199948,
0.03125,0.2407904742723955,0.5119071501825562,-16.537117143579376,0.9529186529978815,
0.0322265625,0.24477978324747238,0.5165490294378061,-16.596905702736677,0.9579245603415742,
0.033203125,0.24881145566994656,0.5211850647328143,-16.65588394320114,0.962938398134456,
0.0341796875,0.25288541401534287,0.5258150815074438,-16.71393724706976,0.967960016123555,
0.03515625,0.2570015672896119,0.5304389054279445,-16.770948072889826,0.9729892628245662,
0.0361328125,0.2611598108435818,0.5350563623935229,-16.826795932138083,0.9780259855270185,
0.037109375,0.26536002619094734,0.5396672785429026,-16.88135736702806,0.9830700302995837,
0.0380859375,0.26960208082995374,0.5442714802608755,-16.93450592958598,0.9881212419955324,
0.0390625,0.2738858280689421,0.5488687941848439,-16.98611216250223,0.993179464258331,
0.0400390625,0.2782111068559167,0.5534590472113543,-17.036043582396896,0.998244539527387,
0.041015625,0.2825777416122974,0.5580420665026211,-17.08416466412692,1.003316309043935,
0.0419921875,0.28698554207102017,0.5626176794930409,-17.130336827594135,1.0083946128570704,
0.04296875,0.2914343031191468,0.5671857138956965,-17.17441842747482,1.013479289829927,
0.0439453125,0.2959238046451455,0.571745997708852,-17.216264743922622,1.0185701776459977,
0.044921875,0.3004538113910037,0.5762983592224351,-17.255727976928778,1.0236671128156023,
0.0458984375,0.3050240728093333,0.5808426270245106,-17.292657242785246,1.0287699306824978,
0.046875,0.3096343229256272,0.5853786300077433,-17.32689857342888,1.0338784654306357,
0.0478515625,0.31428428020582544,0.5899061973758478,-17.358294919083146,1.0389925500910615,
0.048828125,0.31897364742934803,0.5944251586500298,-17.38668615310732,1.044112016548961,
0.0498046875,0.32370211156775097,0.5989353436754121,-17.411909081299235,1.049236695550849,
0.05078125,0.32846934366915903,0.6034365826274531,-17.43379745391797,1.0543664167119031,
0.0517578125,0.33327499874862804,0.6079287060183491,-17.452181981191448,1.0595010085234444,
0.052734375,0.33811871568458873,0.6124115447034273,-17.466890353075133,1.0646402983605565,
0.0537109375,0.34300011712152034,0.6168849298875237,-17.477747262554246,1.0697841124898535,
0.0546875,0.34791880937900155,0.6213486931313517,-17.484574433604518,1.0749322760773907,
0.0556640625,0.3528743823672844,0.6258026663578532,-17.487190652804713,1.0800846131967161,
0.056640625,0.3578664095095333,0.6302466818585405,-17.485411805585365,1.0852409468370687,
0.0576171875,0.3628944476708689,0.6346805722998221,-17.47905091769633,1.0904010989117172,
0.05859375,0.3679580370943575,0.6391041707293156,-17.467918200947658,1.0955648902664434,
0.0595703125,0.37305670134407676,0.643517310582147,-17.45182110406421,1.1007321406881665,
0.060546875,0.3781899472553937,0.6479198256872345,-17.43056436903597,1.1059026689137106,
0.0615234375,0.383357264892583,0.6523115502735599,-17.40395009278898,1.111076292638713,
0.0625,0.38855812751391017,0.6566923189764232,-17.371777794295102,1.1162528285266755,
0.0634765625,0.3937919915443056,0.6610619668436833,-17.333844487347132,1.121432092218155,
0.064453125,0.3990582965557456,0.6654203293419837,-17.28994475986636,1.1266138983400962,
0.0654296875,0.4043564652554588,0.6697672423629615,-17.239870859163325,1.1317980605153035,
0.06640625,0.40968590348206896,0.6741025422294428,-17.18341278298665,1.136984391372054,
0.0673828125,0.41504600020978216,0.6784260657016199,-17.120358378106136,1.1421727025538488,
0.068359375,0.4204361275607244,0.6827376499832144,-17.050493444812655,1.1473628047293034,
0.0693359375,0.42585564082552774,0.6870371327276223,-16.9736018481265,1.1525545076021764,
0.0703125,0.43130387849226265,0.6913243520440436,-16.889465637352195,1.1577476199215369,
0.0712890625,0.4367801622838081,0.6955991465035938,-16.797865171470058,1.1629419494920694,
0.072265625,0.4422837972037454,0.6998613551454004,-16.69857925227799,1.1681373031845128,
0.0732421875,0.44781407159086045,0.7041108174826797,-16.591385265735184,1.1733334869462397,
0.07421875,0.45337025718233065,0.708347373508798,-16.476059330000133,1.178530305811968,
0.0751953125,0.45895160918566924,0.7125708637033119,-16.35237645226081,1.1837275639146088,
0.076171875,0.4645573663594978,0.7167811290379953,-16.22011069282575,1.1889250644962488,
0.0771484375,0.4701867511032064,0.7209780109828433,-16.079035337253792,1.1941226099192672,
0.078125,0.475838969555562,0.7251613515120608,-15.92892307745914,1.1993200016775818,
0.0791015625,0.48151321170231565,0.7293309931100311,-15.769546200323886,1.204517040408033,
0.080078125,0.4872086514928573,0.7334867787772651,-15.60067678459332,1.2097135259018947,
0.0810546875,0.4929244469659586,0.7376285520363319,-15.422086907557878,1.2149092571165188,
0.08203125,0.4986597403846398,0.7417561569377695,-15.233548858790957,1.2201040321871073,
0.0830078125,0.5044136583801919,0.7458694380659758,-15.034835362264124,1.225297648438617,
0.083984375,0.510185312105378,0.7499682405450794,-14.825719809068392,1.2304899023977893,
0.0849609375,0.5159737973968316,0.7540524100447905,-14.605976496900826,1.2356805898053098,
0.0859375,0.5217781949466666,0.7581217927862319,-14.37538087845691,1.2408695056280927,
0.0869140625,0.5275975704833037,0.7621762355477478,-14.133709818891996,1.2460564440716944,
0.087890625,0.5334309749615146,0.7662155856706921,-13.880741862220802,1.2512411985928473,
0.0888671875,0.5392774447616784,0.7702396910651966,-13.61625750503023,1.2564235619121233,
0.08984375,0.5451360018982382,0.774248400215917,-13.340039479206178,1.261603326026715,
0.0908203125,0.5510056542373389,0.7782415621877554,-13.051873043894048,1.266780282223343,
0.091796875,0.5568853957236237,0.782219026631565,-12.751546283659323,1.2719542210912818,
0.0927734375,0.5627742066161552,0.7861806437898287,-12.438850416814043,1.2771249325355096,
0.09375,0.5686710537334267,0.7901262645023162,-12.113580110674151,1.2822922057899726,
0.0947265625,0.5745748907074189,0.7940557402117205,-11.775533803531216,1.28745582943097,
0.095703125,0.5804846582466483,0.7979689229692692,-11.424514035921979,1.2926155913906565,
0.0966796875,0.5863992844081574,0.8018656654403132,-11.06032778850817,1.2977712789706608,
0.09765625,0.5923176848783744,0.8057458209098923,-10.682786825904932,1.3029226788558177,
0.0986328125,0.5982387632627797,0.8096092432882778,-10.291708048065399,1.3080695771280142,
0.099609375,0.6041614113842962,0.8134557871164892,-9.886913848385593,1.31321175928015,
0.1005859375,0.6100845095903259,0.8172853075717897,-9.468232476478773,1.3183490102302091,
0.1015625,0.6160069270683366,0.8210976604731545,-9.035498407103029,1.323481114335439,
0.1025390625,0.6219275221699068,0.8248927022867163,-8.58855271490384,1.3286078554066438,
0.103515625,0.627845142743122,0.8286702901311865,-8.127243452469102,1.3337290167225813,
0.1044921875,0.6337586264732152,0.8324302817832485,-7.651426033460175,1.3388443810444681,
0.10546875,0.6396668012313325,0.8361725356829282,-7.160963619841194,1.3439537306305909,
0.1064453125,0.6455684854313019,0.8398969109389385,-6.655727510004841,1.3490568472510232,
0.107421875,0.6514624883942756,0.8436032673339986,-6.135597531890447,1.3541535122024393,
0.1083984375,0.6573476107211097,0.8472914653301248,-5.600462437802544,1.3592435063230388,
0.109375,0.6632226446723377,0.8509613660738986,-5.050220298549712,1.364326610007562,
0.1103515625,0.6690863745555894,0.8546128314017056,-4.484778899677247,1.3694026032224123,
0.111328125,0.6749375771203007,0.85824572384495,-3.904056137290713,1.3744712655208702,
0.1123046875,0.68077502195955,0.8618599066352398,-3.307980413745538,1.3795323760584088,
0.11328125,0.686597471918857,0.8654552437095456,-2.6964910305337177,1.3845857136080986,
0.1142578125,0.6924036835117667,0.869031599715334,-2.06953857833947,1.38963105657611,
0.115234375,0.6981924073420389,0.8725888400156704,-1.4270853263847796,1.3946681830173062,
0.1162109375,0.7039623885322593,0.8761268306942973,-0.769105605992596,1.399696870650926,
0.1171875,0.7097123671586788,0.8796454385606807,-0.09558618803981966,1.404716896876358,
0.1181640625,0.7154410786920811,0.8831445311550326,0.5934733430723753,1.4097280387889985,
0.119140625,0.7211472544444799,0.8866239767533007,1.2980602227421147,1.4147300731961996,
0.1201171875,0.7268296220214325,0.8900836443721339,2.0181481481658,1.4197227766332994,
0.12109375,0.7324869057797567,0.893523403773815,2.75369692855409,1.4247059253797356,
0.1220703125,0.7381178272904331,0.8969431254711663,3.504652144636713,1.4296792954752413,
0.123046875,0.743721105806463,0.9003426807324252,4.2709448180681875,1.434642662736119,
0.1240234375,0.7492954587354573,0.9037219415860925,5.052491093725772,1.439595802771596,
0.125,0.7548396021167185,0.9070807808257467,5.849191934486251,1.4445384910002532,
0.1259765625,0.7603522511025741,0.9104190720148334,6.660932828366505,1.4494705026665302,
0.126953125,0.7658321204437215,0.91373668949142,7.487583511446639,1.4543916128573056,
0.1279296875,0.7712779249783314,0.9170335083729233,8.328997705999026,1.4593015965185463,
0.12890625,0.7766883801246571,0.9203094045608057,9.185012874830978,1.4642002284720281,
0.1298828125,0.7820622023768952,0.9235642547452404,10.055449994261203,1.469087283432126,
0.130859375,0.7873981098040301,0.9267979364097468,10.940113345863711,1.47396253602267,
0.1318359375,0.7926948225514034,0.9300103278357931,11.838790326245649,1.4788257607938646,
0.1328125,0.7979510633447341,0.9332013081073688,12.751251278530248,1.4836767322392754,
0.1337890625,0.8031655579963195,0.9363707571155259,13.67724934692589,1.488515224812873,
0.134765625,0.8083370359131402,0.9395185555628877,14.616520351463677,1.4933410129461413,
0.1357421875,0.8134642306065911,0.9426445849681281,15.568782687257167,1.498153871065239,
0.13671875,0.8185458802035527,0.9457487276704158,16.533737249784537,1.5029535736082216,
0.1376953125,0.8235807279585249,0.9488308668338287,17.511067382492378,1.5077398950423155,
0.138671875,0.8285675227665285,0.9518908864517348,18.500438852084418,1.512512609881246,
0.1396484375,0.8335050196764898,0.9549286713511415,19.501499852568358,1.5172714927026145,
0.140625,0.838391980404816,0.9579441071970127,20.51388103387754,1.5220163181653281,
0.1416015625,0.8432271738488648,0.9609370804965521,21.537195560265275,1.5267468610270725,
0.142578125,0.8480093766000174,0.9639074786034537,22.57103919911338,1.531462896161833,
0.1435546875,0.8527373734560543,0.9668551897221207,23.61499043747967,1.5361641985774586,
0.14453125,0.857409957932538,0.9697801029118492,24.66861062968264,1.5408505434332658,
0.1455078125,0.8620259327729034,0.972682108090981,25.73144417645543,1.5455217060576845,
0.146484375,0.8665841104569553,0.9755610960410196,26.803018734560744,1.5501774619659419,
0.1474609375,0.8710833137074724,0.9784169584107174,27.882845457813573,1.5548175868777794,
0.1484375,0.8755223759946187,0.9812495877201243,28.97041927024925,1.5594418567352066,
0.1494140625,0.8799001420378587,0.9840588773646055,30.065219172812444,1.564050047720286,
0.150390625,0.8842154683050782,0.986844721618825,31.16670858043661,1.5686419362729478,
0.1513671875,0.888467223508608,0.9896070156406931,32.2743356918303,1.5732172991088333,
0.15234375,0.8926542890978522,0.9923456554752828,33.38753389324326,1.577775913237165,
0.1533203125,0.8967755597482199,0.9950605380587096,34.50572219327264,1.5823175559786382,
0.154296875,0.9008299438460657,0.9977515612219764,35.62830568944254,1.5868420049833398,
0.1552734375,0.9048163639693367,1.0004186236947867,36.75467606839026,1.5913490382486826,
0.15625,0.908733757363636,1.0030616251093207,37.88421213712682,1.5958384341373604,
0.1572265625,0.9125810764134051,1.005680466003977,39.0162803836487,1.6003099713953188,
0.158203125,0.9163572891079362,1.0082750478270808,40.15023557027625,1.6047634291697408,
0.1591796875,0.9200613795019218,1.0108452729405546,41.285421357697615,1.6091985870270429,
0.16015625,0.9236923481702579,1.013391044623558,42.42117095709448,1.6136152249708842,
0.1611328125,0.9272492126568134,1.0159122670760876,43.55680781026975,1.6180131234601813,
0.162109375,0.9307310079168852,1.018408845422545,44.69164629813219,1.6223920634271298,
0.1630859375,0.934136786753061,1.0208806857152684,45.82499247812243,1.626751826295231,
0.1640625,0.9374656202442131,1.0233276949380277,46.956144845391144,1.6310921939973202,
0.1650390625,0.940716598167353,1.0257497810094878,48.08439511747244,1.6354129489935934,
0.166015625,0.9438888294120779,1.0281468527866309,49.209029045995464,1.6397138742896349,
0.1669921875,0.9469814423873454,1.0305188200681485,50.32932724685931,1.6439947534544372,
0.16796875,0.9499935854203171,1.0328655935977942,51.44456605331065,1.6482553706384186,
0.1689453125,0.952924427147015,1.0351870850677016,52.55401838973113,1.6524955105914287,
0.169921875,0.9557731568945407,1.037483207121668,53.65695465875216,1.6567149586807457,
0.1708984375,0.9585389850546109,1.0397538733583982,54.752643648665284,1.6609135009090612,
0.171875,0.9612211434481692,1.0419989983347173,55.84035345479964,1.6650909239324492,
0.1728515625,0.9638188856808381,1.044218497568744,56.91935241193084,1.6692470150783205,
0.173828125,0.9663314874889802,1.0464122875430293,57.988910039101256,1.6733815623633548,
0.1748046875,0.9687582470761462,1.048580285707658,59.048297992875014,1.6774943545114165,
0.17578125,0.9710984854396887,1.0507224104833153,60.09679102990666,1.6815851809714428,
0.1767578125,0.9733515466873305,1.0528385812643162,61.133667972431965,1.6856538319353116,
0.177734375,0.9755167983434806,1.0549287184215976,62.15821267668413,1.6897000983556765,
0.1787109375,0.9775936316450964,1.0569927433056765,63.16971500622434,1.6937237719637794,
0.1796875,0.9795814618269009,1.0590305782495704,64.1674718024732,1.6977246452872237,
0.1806640625,0.9814797283957651,1.06104214657168,65.1507878509639,1.7017025116677225,
0.181640625,0.9832878953940777,1.0630273725786374,66.11897684448235,1.7056571652788033,
0.1826171875,0.9850054516519267,1.0649861815681174,67.07136234041009,1.7095884011434794,
0.18359375,0.9866319110279295,1.066918499831609,68.00727870753194,1.7134960151518817,
0.1845703125,0.9881668126385494,1.0688242546571554,68.92607206097705,1.7173798040788466,
0.185546875,0.9896097210757505,1.0707033743320529,69.82710118556342,1.7212395656014599,
0.1865234375,0.9909602266128438,1.0725557881455163,70.70973844454595,1.725075098316556,
0.1875,0.9922179453983914,1.0743814263913045,71.57337066922716,1.7288862017581668,
0.1884765625,0.9933825196380377,1.0761802203703095,72.41740002849588,1.732672676414922,
0.189453125,0.9944536177641498,1.0779521023931116,73.24124488009348,1.7364343237473971,
0.1904296875,0.9954309345931497,1.0796970057824946,74.04434059901308,1.7401709462054034,
0.19140625,0.9963141914704416,1.0814148648759234,74.82614037594071,1.7438823472452258,
0.1923828125,0.9971031364028294,1.0831056150279872,75.58611599257009,1.747568331346798,
0.193359375,0.9977975441783423,1.0847691926128036,76.32375856933535,1.7512287040308205,
0.1943359375,0.9983972164733863,1.0864055350263864,77.03857927898406,1.7548632718758101,
0.1953125,0.9989019819471505,1.0880145806889747,77.73011003081332,1.758471842535092,
0.1962890625,0.9993116963232064,1.0895962690473275,78.39790412149485,1.7620542247537163,
0.197265625,0.9996262424582435,1.0911505405769775,79.04153684865422,1.7656102283853117,
0.1982421875,0.999845530397898,1.0926773367844502,79.66060608943997,1.7691396644088655,
0.19921875,0.9999694974196363,1.0941766002094435,80.25473284311875,1.7726423449454285,
0.2001953125,0.9999981080626628,1.095648274426972,80.82356173081031,1.7761180832747476,
0.201171875,0.9999313541448362,1.0970923040494718,81.36676145758457,1.7795666938518193,
0.2021484375,0.9997692547665801,1.0985086347288682,81.88402523498667,1.7829879923233631,
0.203125,0.9995118563017837,1.099897213158606,82.37507115851894,1.7863817955442134,
0.2041015625,0.9991592323757044,1.1012579870756427,82.83964254388921,1.78974792159363,
0.205078125,0.998711483829881,1.1025909052624023,83.27750822057557,1.79308618979152,
0.2060546875,0.9981687386740844,1.103895917548692,83.6884627813673,1.7963964207145724,
0.20703125,0.9975311520253372,1.105172974813581,84.07232678617915,1.799678436212306,
0.2080078125,0.9967989060340421,1.1064220289872424,84.42894692236221,1.8029320594230203,
0.208984375,0.9959722097972697,1.1076430330527551,84.7581961208279,1.8061571147896587,
0.2099609375,0.9950512992592625,1.1088359410478694,85.05997362600753,1.809353428075571,
0.2109375,0.994036437099221,1.1100007080667327,85.33420502127208,1.8125208263801806,
0.2119140625,0.9929279126064491,1.1111372902615773,85.58084221010714,1.815659138154552,
0.212890625,0.9917260415429385,1.112245644844373,85.79986335253055,1.818768193216857,
0.2138671875,0.9904311659934865,1.113325730088437,85.99127275760314,1.8218478227677344,
0.21484375,0.9890436542034443,1.1143775053300062,86.15510073204861,1.8248978594055494,
0.2158203125,0.9875639004042069,1.1154009309697754,86.29140338575438,1.8279181371415403,
0.216796875,0.985992324626556,1.11639596847439,86.40026239579427,1.8309084914148592,
0.2177734375,0.9843293725019838,1.1173625803779061,86.48178472806241,1.8338687591075007,
0.21875,0.9825755150521273,1.1183007302832073,86.53610231962455,1.8367987785591164,
